# The (real space) HaloFit power spectrum from CLASS.
#      k[h/Mpc]            P(k)
    1.00000e-04     3.71283e+02
    1.00578e-04     3.73396e+02
    1.01158e-04     3.75520e+02
    1.01743e-04     3.77656e+02
    1.02330e-04     3.79804e+02
    1.02921e-04     3.81965e+02
    1.03516e-04     3.84138e+02
    1.04114e-04     3.86323e+02
    1.04715e-04     3.88520e+02
    1.05320e-04     3.90731e+02
    1.05928e-04     3.92953e+02
    1.06540e-04     3.95188e+02
    1.07155e-04     3.97436e+02
    1.07774e-04     3.99697e+02
    1.08396e-04     4.01971e+02
    1.09022e-04     4.04257e+02
    1.09652e-04     4.06557e+02
    1.10285e-04     4.08869e+02
    1.10922e-04     4.11195e+02
    1.11563e-04     4.13534e+02
    1.12207e-04     4.15886e+02
    1.12855e-04     4.18252e+02
    1.13507e-04     4.20631e+02
    1.14163e-04     4.23023e+02
    1.14822e-04     4.25430e+02
    1.15485e-04     4.27849e+02
    1.16152e-04     4.30283e+02
    1.16823e-04     4.32730e+02
    1.17498e-04     4.35191e+02
    1.18176e-04     4.37667e+02
    1.18859e-04     4.40156e+02
    1.19545e-04     4.42659e+02
    1.20236e-04     4.45177e+02
    1.20930e-04     4.47709e+02
    1.21629e-04     4.50255e+02
    1.22331e-04     4.52816e+02
    1.23038e-04     4.55392e+02
    1.23748e-04     4.57982e+02
    1.24463e-04     4.60586e+02
    1.25182e-04     4.63206e+02
    1.25905e-04     4.65840e+02
    1.26632e-04     4.68489e+02
    1.27363e-04     4.71154e+02
    1.28099e-04     4.73833e+02
    1.28839e-04     4.76528e+02
    1.29583e-04     4.79238e+02
    1.30331e-04     4.81963e+02
    1.31084e-04     4.84704e+02
    1.31841e-04     4.87461e+02
    1.32602e-04     4.90233e+02
    1.33368e-04     4.93020e+02
    1.34138e-04     4.95824e+02
    1.34913e-04     4.98644e+02
    1.35692e-04     5.01479e+02
    1.36476e-04     5.04331e+02
    1.37264e-04     5.07199e+02
    1.38057e-04     5.10083e+02
    1.38854e-04     5.12983e+02
    1.39656e-04     5.15900e+02
    1.40463e-04     5.18834e+02
    1.41274e-04     5.21784e+02
    1.42090e-04     5.24751e+02
    1.42911e-04     5.27734e+02
    1.43736e-04     5.30735e+02
    1.44566e-04     5.33753e+02
    1.45401e-04     5.36787e+02
    1.46241e-04     5.39840e+02
    1.47085e-04     5.42909e+02
    1.47935e-04     5.45996e+02
    1.48789e-04     5.49100e+02
    1.49649e-04     5.52222e+02
    1.50513e-04     5.55361e+02
    1.51382e-04     5.58519e+02
    1.52257e-04     5.61694e+02
    1.53136e-04     5.64887e+02
    1.54020e-04     5.68099e+02
    1.54910e-04     5.71329e+02
    1.55805e-04     5.74576e+02
    1.56704e-04     5.77843e+02
    1.57609e-04     5.81128e+02
    1.58520e-04     5.84431e+02
    1.59435e-04     5.87754e+02
    1.60356e-04     5.91095e+02
    1.61282e-04     5.94455e+02
    1.62214e-04     5.97834e+02
    1.63151e-04     6.01232e+02
    1.64093e-04     6.04650e+02
    1.65041e-04     6.08087e+02
    1.65994e-04     6.11543e+02
    1.66952e-04     6.15019e+02
    1.67917e-04     6.18515e+02
    1.68886e-04     6.22030e+02
    1.69862e-04     6.25566e+02
    1.70843e-04     6.29121e+02
    1.71830e-04     6.32697e+02
    1.72822e-04     6.36293e+02
    1.73820e-04     6.39909e+02
    1.74824e-04     6.43546e+02
    1.75834e-04     6.47203e+02
    1.76849e-04     6.50882e+02
    1.77871e-04     6.54581e+02
    1.78898e-04     6.58300e+02
    1.79931e-04     6.62041e+02
    1.80970e-04     6.65804e+02
    1.82016e-04     6.69587e+02
    1.83067e-04     6.73392e+02
    1.84124e-04     6.77219e+02
    1.85187e-04     6.81067e+02
    1.86257e-04     6.84937e+02
    1.87333e-04     6.88829e+02
    1.88415e-04     6.92743e+02
    1.89503e-04     6.96679e+02
    1.90597e-04     7.00637e+02
    1.91698e-04     7.04618e+02
    1.92805e-04     7.08621e+02
    1.93919e-04     7.12647e+02
    1.95039e-04     7.16696e+02
    1.96165e-04     7.20768e+02
    1.97298e-04     7.24862e+02
    1.98438e-04     7.28980e+02
    1.99584e-04     7.33121e+02
    2.00736e-04     7.37286e+02
    2.01896e-04     7.41474e+02
    2.03062e-04     7.45686e+02
    2.04235e-04     7.49922e+02
    2.05414e-04     7.54182e+02
    2.06600e-04     7.58466e+02
    2.07794e-04     7.62774e+02
    2.08994e-04     7.67106e+02
    2.10201e-04     7.71463e+02
    2.11415e-04     7.75845e+02
    2.12636e-04     7.80251e+02
    2.13864e-04     7.84682e+02
    2.15099e-04     7.89139e+02
    2.16341e-04     7.93620e+02
    2.17591e-04     7.98127e+02
    2.18848e-04     8.02659e+02
    2.20112e-04     8.07217e+02
    2.21383e-04     8.11801e+02
    2.22661e-04     8.16411e+02
    2.23947e-04     8.21047e+02
    2.25241e-04     8.25709e+02
    2.26542e-04     8.30397e+02
    2.27850e-04     8.35112e+02
    2.29166e-04     8.39853e+02
    2.30489e-04     8.44621e+02
    2.31821e-04     8.49416e+02
    2.33160e-04     8.54239e+02
    2.34506e-04     8.59088e+02
    2.35861e-04     8.63965e+02
    2.37223e-04     8.68869e+02
    2.38593e-04     8.73801e+02
    2.39971e-04     8.78761e+02
    2.41357e-04     8.83749e+02
    2.42751e-04     8.88765e+02
    2.44153e-04     8.93809e+02
    2.45563e-04     8.98882e+02
    2.46981e-04     9.03984e+02
    2.48407e-04     9.09114e+02
    2.49842e-04     9.14273e+02
    2.51285e-04     9.19462e+02
    2.52736e-04     9.24679e+02
    2.54196e-04     9.29926e+02
    2.55664e-04     9.35203e+02
    2.57141e-04     9.40509e+02
    2.58626e-04     9.45846e+02
    2.60120e-04     9.51212e+02
    2.61622e-04     9.56609e+02
    2.63133e-04     9.62036e+02
    2.64653e-04     9.67494e+02
    2.66181e-04     9.72982e+02
    2.67718e-04     9.78502e+02
    2.69265e-04     9.84052e+02
    2.70820e-04     9.89634e+02
    2.72384e-04     9.95247e+02
    2.73957e-04     1.00089e+03
    2.75539e-04     1.00657e+03
    2.77131e-04     1.01228e+03
    2.78731e-04     1.01802e+03
    2.80341e-04     1.02379e+03
    2.81960e-04     1.02960e+03
    2.83589e-04     1.03543e+03
    2.85226e-04     1.04131e+03
    2.86874e-04     1.04721e+03
    2.88531e-04     1.05315e+03
    2.90197e-04     1.05912e+03
    2.91873e-04     1.06512e+03
    2.93559e-04     1.07116e+03
    2.95254e-04     1.07723e+03
    2.96959e-04     1.08334e+03
    2.98674e-04     1.08948e+03
    3.00399e-04     1.09566e+03
    3.02134e-04     1.10187e+03
    3.03879e-04     1.10811e+03
    3.05634e-04     1.11439e+03
    3.07400e-04     1.12071e+03
    3.09175e-04     1.12706e+03
    3.10961e-04     1.13344e+03
    3.12756e-04     1.13986e+03
    3.14563e-04     1.14632e+03
    3.16380e-04     1.15282e+03
    3.18207e-04     1.15935e+03
    3.20045e-04     1.16592e+03
    3.21893e-04     1.17252e+03
    3.23752e-04     1.17916e+03
    3.25622e-04     1.18584e+03
    3.27503e-04     1.19256e+03
    3.29394e-04     1.19931e+03
    3.31296e-04     1.20610e+03
    3.33210e-04     1.21293e+03
    3.35134e-04     1.21980e+03
    3.37070e-04     1.22671e+03
    3.39017e-04     1.23365e+03
    3.40975e-04     1.24064e+03
    3.42944e-04     1.24766e+03
    3.44925e-04     1.25473e+03
    3.46917e-04     1.26183e+03
    3.48920e-04     1.26897e+03
    3.50935e-04     1.27615e+03
    3.52962e-04     1.28338e+03
    3.55001e-04     1.29064e+03
    3.57051e-04     1.29794e+03
    3.59113e-04     1.30529e+03
    3.61187e-04     1.31267e+03
    3.63273e-04     1.32010e+03
    3.65371e-04     1.32757e+03
    3.67482e-04     1.33508e+03
    3.69604e-04     1.34263e+03
    3.71739e-04     1.35022e+03
    3.73886e-04     1.35786e+03
    3.76045e-04     1.36554e+03
    3.78217e-04     1.37326e+03
    3.80401e-04     1.38103e+03
    3.82598e-04     1.38884e+03
    3.84808e-04     1.39669e+03
    3.87030e-04     1.40459e+03
    3.89266e-04     1.41253e+03
    3.91514e-04     1.42051e+03
    3.93775e-04     1.42854e+03
    3.96049e-04     1.43661e+03
    3.98337e-04     1.44473e+03
    4.00637e-04     1.45290e+03
    4.02951e-04     1.46111e+03
    4.05278e-04     1.46936e+03
    4.07619e-04     1.47766e+03
    4.09973e-04     1.48601e+03
    4.12341e-04     1.49441e+03
    4.14722e-04     1.50285e+03
    4.17118e-04     1.51134e+03
    4.19527e-04     1.51987e+03
    4.21950e-04     1.52845e+03
    4.24387e-04     1.53708e+03
    4.26838e-04     1.54576e+03
    4.29303e-04     1.55449e+03
    4.31782e-04     1.56327e+03
    4.34276e-04     1.57209e+03
    4.36784e-04     1.58096e+03
    4.39307e-04     1.58988e+03
    4.41844e-04     1.59886e+03
    4.44396e-04     1.60788e+03
    4.46962e-04     1.61695e+03
    4.49544e-04     1.62607e+03
    4.52140e-04     1.63525e+03
    4.54751e-04     1.64447e+03
    4.57378e-04     1.65374e+03
    4.60019e-04     1.66307e+03
    4.62676e-04     1.67245e+03
    4.65348e-04     1.68188e+03
    4.68036e-04     1.69136e+03
    4.70739e-04     1.70090e+03
    4.73458e-04     1.71048e+03
    4.76192e-04     1.72012e+03
    4.78943e-04     1.72982e+03
    4.81709e-04     1.73956e+03
    4.84491e-04     1.74937e+03
    4.87289e-04     1.75922e+03
    4.90103e-04     1.76913e+03
    4.92934e-04     1.77910e+03
    4.95781e-04     1.78912e+03
    4.98644e-04     1.79919e+03
    5.01524e-04     1.80932e+03
    5.04421e-04     1.81951e+03
    5.07334e-04     1.82975e+03
    5.10264e-04     1.84005e+03
    5.13211e-04     1.85041e+03
    5.16175e-04     1.86082e+03
    5.19156e-04     1.87129e+03
    5.22155e-04     1.88182e+03
    5.25170e-04     1.89240e+03
    5.28203e-04     1.90305e+03
    5.31254e-04     1.91375e+03
    5.34322e-04     1.92451e+03
    5.37408e-04     1.93534e+03
    5.40512e-04     1.94622e+03
    5.43634e-04     1.95716e+03
    5.46773e-04     1.96816e+03
    5.49931e-04     1.97922e+03
    5.53107e-04     1.99034e+03
    5.56302e-04     2.00152e+03
    5.59515e-04     2.01277e+03
    5.62746e-04     2.02407e+03
    5.65996e-04     2.03544e+03
    5.69265e-04     2.04687e+03
    5.72553e-04     2.05836e+03
    5.75860e-04     2.06992e+03
    5.79186e-04     2.08154e+03
    5.82531e-04     2.09322e+03
    5.85895e-04     2.10497e+03
    5.89279e-04     2.11678e+03
    5.92682e-04     2.12865e+03
    5.96105e-04     2.14059e+03
    5.99548e-04     2.15260e+03
    6.03011e-04     2.16467e+03
    6.06494e-04     2.17681e+03
    6.09996e-04     2.18901e+03
    6.13519e-04     2.20128e+03
    6.17063e-04     2.21362e+03
    6.20627e-04     2.22602e+03
    6.24211e-04     2.23849e+03
    6.27816e-04     2.25103e+03
    6.31442e-04     2.26364e+03
    6.35089e-04     2.27631e+03
    6.38757e-04     2.28906e+03
    6.42446e-04     2.30187e+03
    6.46156e-04     2.31476e+03
    6.49888e-04     2.32771e+03
    6.53642e-04     2.34073e+03
    6.57417e-04     2.35383e+03
    6.61214e-04     2.36699e+03
    6.65032e-04     2.38023e+03
    6.68873e-04     2.39354e+03
    6.72736e-04     2.40692e+03
    6.76622e-04     2.42038e+03
    6.80530e-04     2.43390e+03
    6.84460e-04     2.44750e+03
    6.88413e-04     2.46117e+03
    6.92389e-04     2.47492e+03
    6.96388e-04     2.48874e+03
    7.00410e-04     2.50264e+03
    7.04455e-04     2.51661e+03
    7.08524e-04     2.53066e+03
    7.12616e-04     2.54478e+03
    7.16731e-04     2.55898e+03
    7.20871e-04     2.57325e+03
    7.25034e-04     2.58760e+03
    7.29222e-04     2.60203e+03
    7.33433e-04     2.61654e+03
    7.37669e-04     2.63112e+03
    7.41930e-04     2.64578e+03
    7.46215e-04     2.66052e+03
    7.50524e-04     2.67534e+03
    7.54859e-04     2.69024e+03
    7.59219e-04     2.70522e+03
    7.63603e-04     2.72028e+03
    7.68014e-04     2.73542e+03
    7.72449e-04     2.75065e+03
    7.76910e-04     2.76595e+03
    7.81398e-04     2.78133e+03
    7.85910e-04     2.79680e+03
    7.90449e-04     2.81235e+03
    7.95015e-04     2.82798e+03
    7.99606e-04     2.84370e+03
    8.04224e-04     2.85950e+03
    8.08869e-04     2.87538e+03
    8.13541e-04     2.89135e+03
    8.18239e-04     2.90740e+03
    8.22965e-04     2.92354e+03
    8.27718e-04     2.93977e+03
    8.32499e-04     2.95608e+03
    8.37307e-04     2.97248e+03
    8.42142e-04     2.98896e+03
    8.47006e-04     3.00553e+03
    8.51898e-04     3.02219e+03
    8.56818e-04     3.03894e+03
    8.61767e-04     3.05578e+03
    8.66744e-04     3.07270e+03
    8.71750e-04     3.08972e+03
    8.76785e-04     3.10682e+03
    8.81848e-04     3.12402e+03
    8.86941e-04     3.14131e+03
    8.92064e-04     3.15868e+03
    8.97216e-04     3.17615e+03
    9.02398e-04     3.19371e+03
    9.07610e-04     3.21137e+03
    9.12852e-04     3.22911e+03
    9.18124e-04     3.24695e+03
    9.23426e-04     3.26488e+03
    9.28760e-04     3.28291e+03
    9.34124e-04     3.30103e+03
    9.39519e-04     3.31925e+03
    9.44945e-04     3.33756e+03
    9.50402e-04     3.35597e+03
    9.55891e-04     3.37447e+03
    9.61412e-04     3.39307e+03
    9.66965e-04     3.41177e+03
    9.72549e-04     3.43057e+03
    9.78166e-04     3.44946e+03
    9.83816e-04     3.46845e+03
    9.89498e-04     3.48754e+03
    9.95212e-04     3.50673e+03
    1.00096e-03     3.52602e+03
    1.00674e-03     3.54541e+03
    1.01256e-03     3.56490e+03
    1.01840e-03     3.58449e+03
    1.02429e-03     3.60418e+03
    1.03020e-03     3.62398e+03
    1.03615e-03     3.64387e+03
    1.04214e-03     3.66387e+03
    1.04815e-03     3.68398e+03
    1.05421e-03     3.70418e+03
    1.06030e-03     3.72449e+03
    1.06642e-03     3.74491e+03
    1.07258e-03     3.76543e+03
    1.07877e-03     3.78606e+03
    1.08500e-03     3.80679e+03
    1.09127e-03     3.82763e+03
    1.09757e-03     3.84857e+03
    1.10391e-03     3.86962e+03
    1.11029e-03     3.89078e+03
    1.11670e-03     3.91205e+03
    1.12315e-03     3.93343e+03
    1.12964e-03     3.95491e+03
    1.13616e-03     3.97651e+03
    1.14272e-03     3.99821e+03
    1.14932e-03     4.02003e+03
    1.15596e-03     4.04196e+03
    1.16264e-03     4.06399e+03
    1.16935e-03     4.08614e+03
    1.17610e-03     4.10840e+03
    1.18290e-03     4.13078e+03
    1.18973e-03     4.15326e+03
    1.19660e-03     4.17586e+03
    1.20351e-03     4.19858e+03
    1.21046e-03     4.22141e+03
    1.21745e-03     4.24435e+03
    1.22448e-03     4.26741e+03
    1.23156e-03     4.29058e+03
    1.23867e-03     4.31387e+03
    1.24582e-03     4.33728e+03
    1.25302e-03     4.36080e+03
    1.26026e-03     4.38445e+03
    1.26753e-03     4.40821e+03
    1.27485e-03     4.43208e+03
    1.28222e-03     4.45608e+03
    1.28962e-03     4.48020e+03
    1.29707e-03     4.50443e+03
    1.30456e-03     4.52879e+03
    1.31210e-03     4.55327e+03
    1.31967e-03     4.57787e+03
    1.32730e-03     4.60259e+03
    1.33496e-03     4.62743e+03
    1.34267e-03     4.65239e+03
    1.35043e-03     4.67748e+03
    1.35823e-03     4.70269e+03
    1.36607e-03     4.72803e+03
    1.37396e-03     4.75349e+03
    1.38190e-03     4.77907e+03
    1.38988e-03     4.80478e+03
    1.39790e-03     4.83061e+03
    1.40598e-03     4.85657e+03
    1.41410e-03     4.88266e+03
    1.42226e-03     4.90888e+03
    1.43048e-03     4.93522e+03
    1.43874e-03     4.96169e+03
    1.44705e-03     4.98829e+03
    1.45541e-03     5.01501e+03
    1.46381e-03     5.04187e+03
    1.47227e-03     5.06885e+03
    1.48077e-03     5.09597e+03
    1.48932e-03     5.12322e+03
    1.49792e-03     5.15059e+03
    1.50658e-03     5.17810e+03
    1.51528e-03     5.20574e+03
    1.52403e-03     5.23351e+03
    1.53283e-03     5.26142e+03
    1.54168e-03     5.28946e+03
    1.55059e-03     5.31763e+03
    1.55954e-03     5.34594e+03
    1.56855e-03     5.37438e+03
    1.57761e-03     5.40295e+03
    1.58672e-03     5.43166e+03
    1.59588e-03     5.46051e+03
    1.60510e-03     5.48949e+03
    1.61437e-03     5.51861e+03
    1.62369e-03     5.54787e+03
    1.63307e-03     5.57726e+03
    1.64250e-03     5.60679e+03
    1.65199e-03     5.63646e+03
    1.66153e-03     5.66627e+03
    1.67113e-03     5.69622e+03
    1.68078e-03     5.72631e+03
    1.69049e-03     5.75654e+03
    1.70025e-03     5.78691e+03
    1.71007e-03     5.81741e+03
    1.71995e-03     5.84807e+03
    1.72988e-03     5.87886e+03
    1.73987e-03     5.90979e+03
    1.74992e-03     5.94087e+03
    1.76003e-03     5.97209e+03
    1.77019e-03     6.00345e+03
    1.78041e-03     6.03495e+03
    1.79070e-03     6.06660e+03
    1.80104e-03     6.09840e+03
    1.81144e-03     6.13033e+03
    1.82190e-03     6.16242e+03
    1.83243e-03     6.19465e+03
    1.84301e-03     6.22702e+03
    1.85365e-03     6.25954e+03
    1.86436e-03     6.29221e+03
    1.87513e-03     6.32502e+03
    1.88596e-03     6.35798e+03
    1.89685e-03     6.39109e+03
    1.90780e-03     6.42434e+03
    1.91882e-03     6.45775e+03
    1.92990e-03     6.49130e+03
    1.94105e-03     6.52500e+03
    1.95226e-03     6.55885e+03
    1.96354e-03     6.59285e+03
    1.97488e-03     6.62700e+03
    1.98628e-03     6.66130e+03
    1.99775e-03     6.69575e+03
    2.00929e-03     6.73035e+03
    2.02090e-03     6.76510e+03
    2.03257e-03     6.80001e+03
    2.04431e-03     6.83506e+03
    2.05611e-03     6.87027e+03
    2.06799e-03     6.90563e+03
    2.07993e-03     6.94114e+03
    2.09194e-03     6.97681e+03
    2.10403e-03     7.01263e+03
    2.11618e-03     7.04860e+03
    2.12840e-03     7.08473e+03
    2.14069e-03     7.12101e+03
    2.15306e-03     7.15745e+03
    2.16549e-03     7.19404e+03
    2.17800e-03     7.23078e+03
    2.19058e-03     7.26768e+03
    2.20323e-03     7.30474e+03
    2.21595e-03     7.34195e+03
    2.22875e-03     7.37932e+03
    2.24162e-03     7.41684e+03
    2.25457e-03     7.45452e+03
    2.26759e-03     7.49235e+03
    2.28069e-03     7.53035e+03
    2.29386e-03     7.56850e+03
    2.30711e-03     7.60680e+03
    2.32043e-03     7.64527e+03
    2.33383e-03     7.68389e+03
    2.34731e-03     7.72267e+03
    2.36087e-03     7.76161e+03
    2.37451e-03     7.80070e+03
    2.38822e-03     7.83996e+03
    2.40201e-03     7.87937e+03
    2.41589e-03     7.91894e+03
    2.42984e-03     7.95867e+03
    2.44387e-03     7.99856e+03
    2.45799e-03     8.03860e+03
    2.47218e-03     8.07881e+03
    2.48646e-03     8.11918e+03
    2.50082e-03     8.15970e+03
    2.51526e-03     8.20039e+03
    2.52979e-03     8.24123e+03
    2.54440e-03     8.28224e+03
    2.55910e-03     8.32340e+03
    2.57388e-03     8.36473e+03
    2.58874e-03     8.40621e+03
    2.60369e-03     8.44786e+03
    2.61873e-03     8.48967e+03
    2.63386e-03     8.53163e+03
    2.64907e-03     8.57376e+03
    2.66437e-03     8.61605e+03
    2.67975e-03     8.65850e+03
    2.69523e-03     8.70111e+03
    2.71080e-03     8.74387e+03
    2.72645e-03     8.78680e+03
    2.74220e-03     8.82990e+03
    2.75804e-03     8.87315e+03
    2.77397e-03     8.91656e+03
    2.78999e-03     8.96013e+03
    2.80610e-03     9.00386e+03
    2.82231e-03     9.04776e+03
    2.83861e-03     9.09181e+03
    2.85500e-03     9.13602e+03
    2.87149e-03     9.18040e+03
    2.88808e-03     9.22493e+03
    2.90476e-03     9.26963e+03
    2.92153e-03     9.31448e+03
    2.93841e-03     9.35950e+03
    2.95538e-03     9.40467e+03
    2.97244e-03     9.45001e+03
    2.98961e-03     9.49550e+03
    3.00688e-03     9.54115e+03
    3.02424e-03     9.58697e+03
    3.04171e-03     9.63294e+03
    3.05928e-03     9.67907e+03
    3.07695e-03     9.72536e+03
    3.09472e-03     9.77181e+03
    3.11259e-03     9.81842e+03
    3.13057e-03     9.86518e+03
    3.14865e-03     9.91211e+03
    3.16683e-03     9.95919e+03
    3.18512e-03     1.00064e+04
    3.20352e-03     1.00538e+04
    3.22202e-03     1.01014e+04
    3.24063e-03     1.01491e+04
    3.25935e-03     1.01970e+04
    3.27817e-03     1.02450e+04
    3.29710e-03     1.02932e+04
    3.31615e-03     1.03415e+04
    3.33530e-03     1.03900e+04
    3.35456e-03     1.04386e+04
    3.37394e-03     1.04874e+04
    3.39342e-03     1.05364e+04
    3.41302e-03     1.05855e+04
    3.43273e-03     1.06348e+04
    3.45256e-03     1.06842e+04
    3.47250e-03     1.07338e+04
    3.49255e-03     1.07835e+04
    3.51272e-03     1.08334e+04
    3.53301e-03     1.08834e+04
    3.55342e-03     1.09336e+04
    3.57394e-03     1.09839e+04
