# The (real space) HaloFit power spectrum from CLASS.
#      k[h/Mpc]            P(k)
    1.00000e-04     3.29130e+02
    1.00578e-04     3.30966e+02
    1.01158e-04     3.32813e+02
    1.01743e-04     3.34670e+02
    1.02330e-04     3.36537e+02
    1.02921e-04     3.38414e+02
    1.03516e-04     3.40302e+02
    1.04114e-04     3.42201e+02
    1.04715e-04     3.44110e+02
    1.05320e-04     3.46030e+02
    1.05928e-04     3.47960e+02
    1.06540e-04     3.49901e+02
    1.07155e-04     3.51853e+02
    1.07774e-04     3.53816e+02
    1.08396e-04     3.55790e+02
    1.09022e-04     3.57775e+02
    1.09652e-04     3.59771e+02
    1.10285e-04     3.61778e+02
    1.10922e-04     3.63796e+02
    1.11563e-04     3.65826e+02
    1.12207e-04     3.67866e+02
    1.12855e-04     3.69918e+02
    1.13507e-04     3.71982e+02
    1.14163e-04     3.74057e+02
    1.14822e-04     3.76144e+02
    1.15485e-04     3.78242e+02
    1.16152e-04     3.80352e+02
    1.16823e-04     3.82474e+02
    1.17498e-04     3.84607e+02
    1.18176e-04     3.86753e+02
    1.18859e-04     3.88910e+02
    1.19545e-04     3.91079e+02
    1.20236e-04     3.93261e+02
    1.20930e-04     3.95455e+02
    1.21629e-04     3.97660e+02
    1.22331e-04     3.99879e+02
    1.23038e-04     4.02109e+02
    1.23748e-04     4.04352e+02
    1.24463e-04     4.06607e+02
    1.25182e-04     4.08875e+02
    1.25905e-04     4.11156e+02
    1.26632e-04     4.13449e+02
    1.27363e-04     4.15755e+02
    1.28099e-04     4.18074e+02
    1.28839e-04     4.20406e+02
    1.29583e-04     4.22751e+02
    1.30331e-04     4.25109e+02
    1.31084e-04     4.27480e+02
    1.31841e-04     4.29864e+02
    1.32602e-04     4.32262e+02
    1.33368e-04     4.34673e+02
    1.34138e-04     4.37097e+02
    1.34913e-04     4.39535e+02
    1.35692e-04     4.41986e+02
    1.36476e-04     4.44451e+02
    1.37264e-04     4.46930e+02
    1.38057e-04     4.49422e+02
    1.38854e-04     4.51929e+02
    1.39656e-04     4.54449e+02
    1.40463e-04     4.56984e+02
    1.41274e-04     4.59532e+02
    1.42090e-04     4.62095e+02
    1.42911e-04     4.64672e+02
    1.43736e-04     4.67263e+02
    1.44566e-04     4.69869e+02
    1.45401e-04     4.72489e+02
    1.46241e-04     4.75124e+02
    1.47085e-04     4.77773e+02
    1.47935e-04     4.80438e+02
    1.48789e-04     4.83117e+02
    1.49649e-04     4.85811e+02
    1.50513e-04     4.88520e+02
    1.51382e-04     4.91244e+02
    1.52257e-04     4.93983e+02
    1.53136e-04     4.96737e+02
    1.54020e-04     4.99507e+02
    1.54910e-04     5.02292e+02
    1.55805e-04     5.05093e+02
    1.56704e-04     5.07909e+02
    1.57609e-04     5.10741e+02
    1.58520e-04     5.13589e+02
    1.59435e-04     5.16453e+02
    1.60356e-04     5.19332e+02
    1.61282e-04     5.22228e+02
    1.62214e-04     5.25139e+02
    1.63151e-04     5.28067e+02
    1.64093e-04     5.31011e+02
    1.65041e-04     5.33972e+02
    1.65994e-04     5.36949e+02
    1.66952e-04     5.39942e+02
    1.67917e-04     5.42952e+02
    1.68886e-04     5.45979e+02
    1.69862e-04     5.49023e+02
    1.70843e-04     5.52083e+02
    1.71830e-04     5.55161e+02
    1.72822e-04     5.58256e+02
    1.73820e-04     5.61368e+02
    1.74824e-04     5.64497e+02
    1.75834e-04     5.67644e+02
    1.76849e-04     5.70808e+02
    1.77871e-04     5.73990e+02
    1.78898e-04     5.77189e+02
    1.79931e-04     5.80407e+02
    1.80970e-04     5.83642e+02
    1.82016e-04     5.86895e+02
    1.83067e-04     5.90166e+02
    1.84124e-04     5.93455e+02
    1.85187e-04     5.96763e+02
    1.86257e-04     6.00089e+02
    1.87333e-04     6.03434e+02
    1.88415e-04     6.06797e+02
    1.89503e-04     6.10179e+02
    1.90597e-04     6.13579e+02
    1.91698e-04     6.16999e+02
    1.92805e-04     6.20437e+02
    1.93919e-04     6.23895e+02
    1.95039e-04     6.27372e+02
    1.96165e-04     6.30868e+02
    1.97298e-04     6.34383e+02
    1.98438e-04     6.37918e+02
    1.99584e-04     6.41473e+02
    2.00736e-04     6.45047e+02
    2.01896e-04     6.48642e+02
    2.03062e-04     6.52256e+02
    2.04235e-04     6.55890e+02
    2.05414e-04     6.59545e+02
    2.06600e-04     6.63219e+02
    2.07794e-04     6.66914e+02
    2.08994e-04     6.70630e+02
    2.10201e-04     6.74366e+02
    2.11415e-04     6.78123e+02
    2.12636e-04     6.81901e+02
    2.13864e-04     6.85700e+02
    2.15099e-04     6.89520e+02
    2.16341e-04     6.93361e+02
    2.17591e-04     6.97224e+02
    2.18848e-04     7.01108e+02
    2.20112e-04     7.05013e+02
    2.21383e-04     7.08940e+02
    2.22661e-04     7.12889e+02
    2.23947e-04     7.16860e+02
    2.25241e-04     7.20853e+02
    2.26542e-04     7.24868e+02
    2.27850e-04     7.28905e+02
    2.29166e-04     7.32965e+02
    2.30489e-04     7.37047e+02
    2.31821e-04     7.41151e+02
    2.33160e-04     7.45279e+02
    2.34506e-04     7.49429e+02
    2.35861e-04     7.53603e+02
    2.37223e-04     7.57799e+02
    2.38593e-04     7.62019e+02
    2.39971e-04     7.66262e+02
    2.41357e-04     7.70529e+02
    2.42751e-04     7.74819e+02
    2.44153e-04     7.79133e+02
    2.45563e-04     7.83471e+02
    2.46981e-04     7.87834e+02
    2.48407e-04     7.92220e+02
    2.49842e-04     7.96630e+02
    2.51285e-04     8.01065e+02
    2.52736e-04     8.05525e+02
    2.54196e-04     8.10009e+02
    2.55664e-04     8.14518e+02
    2.57141e-04     8.19052e+02
    2.58626e-04     8.23611e+02
    2.60120e-04     8.28195e+02
    2.61622e-04     8.32805e+02
    2.63133e-04     8.37440e+02
    2.64653e-04     8.42101e+02
    2.66181e-04     8.46788e+02
    2.67718e-04     8.51500e+02
    2.69265e-04     8.56239e+02
    2.70820e-04     8.61004e+02
    2.72384e-04     8.65795e+02
    2.73957e-04     8.70613e+02
    2.75539e-04     8.75457e+02
    2.77131e-04     8.80328e+02
    2.78731e-04     8.85226e+02
    2.80341e-04     8.90152e+02
    2.81960e-04     8.95104e+02
    2.83589e-04     9.00084e+02
    2.85226e-04     9.05091e+02
    2.86874e-04     9.10126e+02
    2.88531e-04     9.15189e+02
    2.90197e-04     9.20280e+02
    2.91873e-04     9.25398e+02
    2.93559e-04     9.30546e+02
    2.95254e-04     9.35721e+02
    2.96959e-04     9.40925e+02
    2.98674e-04     9.46158e+02
    3.00399e-04     9.51420e+02
    3.02134e-04     9.56711e+02
    3.03879e-04     9.62031e+02
    3.05634e-04     9.67380e+02
    3.07400e-04     9.72759e+02
    3.09175e-04     9.78168e+02
    3.10961e-04     9.83606e+02
    3.12756e-04     9.89075e+02
    3.14563e-04     9.94574e+02
    3.16380e-04     1.00010e+03
    3.18207e-04     1.00566e+03
    3.20045e-04     1.01125e+03
    3.21893e-04     1.01687e+03
    3.23752e-04     1.02252e+03
    3.25622e-04     1.02821e+03
    3.27503e-04     1.03392e+03
    3.29394e-04     1.03967e+03
    3.31296e-04     1.04545e+03
    3.33210e-04     1.05125e+03
    3.35134e-04     1.05710e+03
    3.37070e-04     1.06297e+03
    3.39017e-04     1.06888e+03
    3.40975e-04     1.07481e+03
    3.42944e-04     1.08078e+03
    3.44925e-04     1.08679e+03
    3.46917e-04     1.09283e+03
    3.48920e-04     1.09890e+03
    3.50935e-04     1.10500e+03
    3.52962e-04     1.11114e+03
    3.55001e-04     1.11731e+03
    3.57051e-04     1.12351e+03
    3.59113e-04     1.12975e+03
    3.61187e-04     1.13602e+03
    3.63273e-04     1.14233e+03
    3.65371e-04     1.14867e+03
    3.67482e-04     1.15505e+03
    3.69604e-04     1.16146e+03
    3.71739e-04     1.16791e+03
    3.73886e-04     1.17439e+03
    3.76045e-04     1.18091e+03
    3.78217e-04     1.18747e+03
    3.80401e-04     1.19406e+03
    3.82598e-04     1.20068e+03
    3.84808e-04     1.20735e+03
    3.87030e-04     1.21405e+03
    3.89266e-04     1.22078e+03
    3.91514e-04     1.22755e+03
    3.93775e-04     1.23436e+03
    3.96049e-04     1.24121e+03
    3.98337e-04     1.24810e+03
    4.00637e-04     1.25502e+03
    4.02951e-04     1.26198e+03
    4.05278e-04     1.26898e+03
    4.07619e-04     1.27602e+03
    4.09973e-04     1.28309e+03
    4.12341e-04     1.29021e+03
    4.14722e-04     1.29736e+03
    4.17118e-04     1.30455e+03
    4.19527e-04     1.31178e+03
    4.21950e-04     1.31905e+03
    4.24387e-04     1.32637e+03
    4.26838e-04     1.33372e+03
    4.29303e-04     1.34111e+03
    4.31782e-04     1.34854e+03
    4.34276e-04     1.35601e+03
    4.36784e-04     1.36352e+03
    4.39307e-04     1.37108e+03
    4.41844e-04     1.37867e+03
    4.44396e-04     1.38631e+03
    4.46962e-04     1.39399e+03
    4.49544e-04     1.40171e+03
    4.52140e-04     1.40947e+03
    4.54751e-04     1.41728e+03
    4.57378e-04     1.42512e+03
    4.60019e-04     1.43302e+03
    4.62676e-04     1.44095e+03
    4.65348e-04     1.44892e+03
    4.68036e-04     1.45694e+03
    4.70739e-04     1.46501e+03
    4.73458e-04     1.47312e+03
    4.76192e-04     1.48127e+03
    4.78943e-04     1.48946e+03
    4.81709e-04     1.49770e+03
    4.84491e-04     1.50599e+03
    4.87289e-04     1.51432e+03
    4.90103e-04     1.52270e+03
    4.92934e-04     1.53112e+03
    4.95781e-04     1.53958e+03
    4.98644e-04     1.54810e+03
    5.01524e-04     1.55666e+03
    5.04421e-04     1.56526e+03
    5.07334e-04     1.57391e+03
    5.10264e-04     1.58261e+03
    5.13211e-04     1.59136e+03
    5.16175e-04     1.60015e+03
    5.19156e-04     1.60899e+03
    5.22155e-04     1.61788e+03
    5.25170e-04     1.62682e+03
    5.28203e-04     1.63581e+03
    5.31254e-04     1.64484e+03
    5.34322e-04     1.65393e+03
    5.37408e-04     1.66306e+03
    5.40512e-04     1.67224e+03
    5.43634e-04     1.68147e+03
    5.46773e-04     1.69076e+03
    5.49931e-04     1.70009e+03
    5.53107e-04     1.70947e+03
    5.56302e-04     1.71890e+03
    5.59515e-04     1.72839e+03
    5.62746e-04     1.73792e+03
    5.65996e-04     1.74751e+03
    5.69265e-04     1.75715e+03
    5.72553e-04     1.76684e+03
    5.75860e-04     1.77658e+03
    5.79186e-04     1.78638e+03
    5.82531e-04     1.79623e+03
    5.85895e-04     1.80613e+03
    5.89279e-04     1.81608e+03
    5.92682e-04     1.82609e+03
    5.96105e-04     1.83615e+03
    5.99548e-04     1.84627e+03
    6.03011e-04     1.85644e+03
    6.06494e-04     1.86666e+03
    6.09996e-04     1.87694e+03
    6.13519e-04     1.88728e+03
    6.17063e-04     1.89767e+03
    6.20627e-04     1.90811e+03
    6.24211e-04     1.91862e+03
    6.27816e-04     1.92918e+03
    6.31442e-04     1.93979e+03
    6.35089e-04     1.95046e+03
    6.38757e-04     1.96119e+03
    6.42446e-04     1.97198e+03
    6.46156e-04     1.98283e+03
    6.49888e-04     1.99373e+03
    6.53642e-04     2.00469e+03
    6.57417e-04     2.01571e+03
    6.61214e-04     2.02679e+03
    6.65032e-04     2.03793e+03
    6.68873e-04     2.04912e+03
    6.72736e-04     2.06038e+03
    6.76622e-04     2.07170e+03
    6.80530e-04     2.08307e+03
    6.84460e-04     2.09451e+03
    6.88413e-04     2.10601e+03
    6.92389e-04     2.11757e+03
    6.96388e-04     2.12919e+03
    7.00410e-04     2.14088e+03
    7.04455e-04     2.15262e+03
    7.08524e-04     2.16443e+03
    7.12616e-04     2.17630e+03
    7.16731e-04     2.18824e+03
    7.20871e-04     2.20024e+03
    7.25034e-04     2.21230e+03
    7.29222e-04     2.22442e+03
    7.33433e-04     2.23661e+03
    7.37669e-04     2.24887e+03
    7.41930e-04     2.26119e+03
    7.46215e-04     2.27357e+03
    7.50524e-04     2.28602e+03
    7.54859e-04     2.29854e+03
    7.59219e-04     2.31112e+03
    7.63603e-04     2.32377e+03
    7.68014e-04     2.33648e+03
    7.72449e-04     2.34926e+03
    7.76910e-04     2.36211e+03
    7.81398e-04     2.37503e+03
    7.85910e-04     2.38802e+03
    7.90449e-04     2.40107e+03
    7.95015e-04     2.41420e+03
    7.99606e-04     2.42739e+03
    8.04224e-04     2.44065e+03
    8.08869e-04     2.45398e+03
    8.13541e-04     2.46738e+03
    8.18239e-04     2.48085e+03
    8.22965e-04     2.49440e+03
    8.27718e-04     2.50801e+03
    8.32499e-04     2.52169e+03
    8.37307e-04     2.53545e+03
    8.42142e-04     2.54928e+03
    8.47006e-04     2.56318e+03
    8.51898e-04     2.57715e+03
    8.56818e-04     2.59120e+03
    8.61767e-04     2.60532e+03
    8.66744e-04     2.61952e+03
    8.71750e-04     2.63378e+03
    8.76785e-04     2.64813e+03
    8.81848e-04     2.66254e+03
    8.86941e-04     2.67704e+03
    8.92064e-04     2.69161e+03
    8.97216e-04     2.70625e+03
    9.02398e-04     2.72097e+03
    9.07610e-04     2.73577e+03
    9.12852e-04     2.75064e+03
    9.18124e-04     2.76559e+03
    9.23426e-04     2.78062e+03
    9.28760e-04     2.79573e+03
    9.34124e-04     2.81091e+03
    9.39519e-04     2.82617e+03
    9.44945e-04     2.84152e+03
    9.50402e-04     2.85694e+03
    9.55891e-04     2.87244e+03
    9.61412e-04     2.88802e+03
    9.66965e-04     2.90368e+03
    9.72549e-04     2.91942e+03
    9.78166e-04     2.93525e+03
    9.83816e-04     2.95115e+03
    9.89498e-04     2.96714e+03
    9.95212e-04     2.98321e+03
    1.00096e-03     2.99936e+03
    1.00674e-03     3.01560e+03
    1.01256e-03     3.03191e+03
    1.01840e-03     3.04832e+03
    1.02429e-03     3.06480e+03
    1.03020e-03     3.08137e+03
    1.03615e-03     3.09803e+03
    1.04214e-03     3.11477e+03
    1.04815e-03     3.13159e+03
    1.05421e-03     3.14850e+03
    1.06030e-03     3.16550e+03
    1.06642e-03     3.18259e+03
    1.07258e-03     3.19976e+03
    1.07877e-03     3.21702e+03
    1.08500e-03     3.23437e+03
    1.09127e-03     3.25180e+03
    1.09757e-03     3.26932e+03
    1.10391e-03     3.28694e+03
    1.11029e-03     3.30464e+03
    1.11670e-03     3.32243e+03
    1.12315e-03     3.34031e+03
    1.12964e-03     3.35828e+03
    1.13616e-03     3.37635e+03
    1.14272e-03     3.39450e+03
    1.14932e-03     3.41275e+03
    1.15596e-03     3.43108e+03
    1.16264e-03     3.44951e+03
    1.16935e-03     3.46804e+03
    1.17610e-03     3.48665e+03
    1.18290e-03     3.50536e+03
    1.18973e-03     3.52416e+03
    1.19660e-03     3.54306e+03
    1.20351e-03     3.56205e+03
    1.21046e-03     3.58114e+03
    1.21745e-03     3.60032e+03
    1.22448e-03     3.61959e+03
    1.23156e-03     3.63897e+03
    1.23867e-03     3.65843e+03
    1.24582e-03     3.67800e+03
    1.25302e-03     3.69766e+03
    1.26026e-03     3.71742e+03
    1.26753e-03     3.73728e+03
    1.27485e-03     3.75724e+03
    1.28222e-03     3.77729e+03
    1.28962e-03     3.79745e+03
    1.29707e-03     3.81770e+03
    1.30456e-03     3.83806e+03
    1.31210e-03     3.85851e+03
    1.31967e-03     3.87907e+03
    1.32730e-03     3.89972e+03
    1.33496e-03     3.92048e+03
    1.34267e-03     3.94134e+03
    1.35043e-03     3.96230e+03
    1.35823e-03     3.98336e+03
    1.36607e-03     4.00453e+03
    1.37396e-03     4.02580e+03
    1.38190e-03     4.04717e+03
    1.38988e-03     4.06865e+03
    1.39790e-03     4.09023e+03
    1.40598e-03     4.11191e+03
    1.41410e-03     4.13370e+03
    1.42226e-03     4.15560e+03
    1.43048e-03     4.17760e+03
    1.43874e-03     4.19971e+03
    1.44705e-03     4.22193e+03
    1.45541e-03     4.24425e+03
    1.46381e-03     4.26668e+03
    1.47227e-03     4.28922e+03
    1.48077e-03     4.31187e+03
    1.48932e-03     4.33462e+03
    1.49792e-03     4.35748e+03
    1.50658e-03     4.38046e+03
    1.51528e-03     4.40354e+03
    1.52403e-03     4.42673e+03
    1.53283e-03     4.45004e+03
    1.54168e-03     4.47345e+03
    1.55059e-03     4.49698e+03
    1.55954e-03     4.52061e+03
    1.56855e-03     4.54436e+03
    1.57761e-03     4.56822e+03
    1.58672e-03     4.59220e+03
    1.59588e-03     4.61628e+03
    1.60510e-03     4.64048e+03
    1.61437e-03     4.66480e+03
    1.62369e-03     4.68922e+03
    1.63307e-03     4.71377e+03
    1.64250e-03     4.73843e+03
    1.65199e-03     4.76320e+03
    1.66153e-03     4.78809e+03
    1.67113e-03     4.81309e+03
    1.68078e-03     4.83821e+03
    1.69049e-03     4.86345e+03
    1.70025e-03     4.88881e+03
    1.71007e-03     4.91428e+03
    1.71995e-03     4.93987e+03
    1.72988e-03     4.96558e+03
    1.73987e-03     4.99141e+03
    1.74992e-03     5.01735e+03
    1.76003e-03     5.04342e+03
    1.77019e-03     5.06960e+03
    1.78041e-03     5.09591e+03
    1.79070e-03     5.12233e+03
    1.80104e-03     5.14888e+03
    1.81144e-03     5.17555e+03
    1.82190e-03     5.20234e+03
    1.83243e-03     5.22924e+03
    1.84301e-03     5.25628e+03
    1.85365e-03     5.28343e+03
    1.86436e-03     5.31071e+03
    1.87513e-03     5.33811e+03
    1.88596e-03     5.36563e+03
    1.89685e-03     5.39327e+03
    1.90780e-03     5.42104e+03
    1.91882e-03     5.44894e+03
    1.92990e-03     5.47696e+03
    1.94105e-03     5.50510e+03
    1.95226e-03     5.53337e+03
    1.96354e-03     5.56176e+03
    1.97488e-03     5.59028e+03
    1.98628e-03     5.61893e+03
    1.99775e-03     5.64770e+03
    2.00929e-03     5.67659e+03
    2.02090e-03     5.70562e+03
    2.03257e-03     5.73477e+03
    2.04431e-03     5.76405e+03
    2.05611e-03     5.79346e+03
    2.06799e-03     5.82299e+03
    2.07993e-03     5.85266e+03
    2.09194e-03     5.88245e+03
    2.10403e-03     5.91237e+03
    2.11618e-03     5.94242e+03
    2.12840e-03     5.97260e+03
    2.14069e-03     6.00291e+03
    2.15306e-03     6.03335e+03
    2.16549e-03     6.06392e+03
    2.17800e-03     6.09462e+03
    2.19058e-03     6.12545e+03
    2.20323e-03     6.15641e+03
    2.21595e-03     6.18750e+03
    2.22875e-03     6.21873e+03
    2.24162e-03     6.25008e+03
    2.25457e-03     6.28157e+03
    2.26759e-03     6.31319e+03
    2.28069e-03     6.34494e+03
    2.29386e-03     6.37683e+03
    2.30711e-03     6.40884e+03
    2.32043e-03     6.44099e+03
    2.33383e-03     6.47328e+03
    2.34731e-03     6.50569e+03
    2.36087e-03     6.53825e+03
    2.37451e-03     6.57093e+03
    2.38822e-03     6.60375e+03
    2.40201e-03     6.63670e+03
    2.41589e-03     6.66979e+03
    2.42984e-03     6.70301e+03
    2.44387e-03     6.73636e+03
    2.45799e-03     6.76985e+03
    2.47218e-03     6.80348e+03
    2.48646e-03     6.83724e+03
    2.50082e-03     6.87113e+03
    2.51526e-03     6.90517e+03
    2.52979e-03     6.93933e+03
    2.54440e-03     6.97363e+03
    2.55910e-03     7.00807e+03
    2.57388e-03     7.04265e+03
    2.58874e-03     7.07736e+03
    2.60369e-03     7.11220e+03
    2.61873e-03     7.14719e+03
    2.63386e-03     7.18231e+03
    2.64907e-03     7.21756e+03
    2.66437e-03     7.25296e+03
    2.67975e-03     7.28849e+03
    2.69523e-03     7.32415e+03
    2.71080e-03     7.35996e+03
    2.72645e-03     7.39590e+03
    2.74220e-03     7.43198e+03
    2.75804e-03     7.46819e+03
    2.77397e-03     7.50454e+03
    2.78999e-03     7.54103e+03
    2.80610e-03     7.57766e+03
    2.82231e-03     7.61443e+03
    2.83861e-03     7.65133e+03
    2.85500e-03     7.68837e+03
    2.87149e-03     7.72554e+03
    2.88808e-03     7.76286e+03
    2.90476e-03     7.80031e+03
    2.92153e-03     7.83790e+03
    2.93841e-03     7.87563e+03
    2.95538e-03     7.91349e+03
    2.97244e-03     7.95149e+03
    2.98961e-03     7.98963e+03
    3.00688e-03     8.02790e+03
    3.02424e-03     8.06632e+03
    3.04171e-03     8.10487e+03
    3.05928e-03     8.14355e+03
    3.07695e-03     8.18238e+03
    3.09472e-03     8.22134e+03
    3.11259e-03     8.26044e+03
    3.13057e-03     8.29967e+03
    3.14865e-03     8.33904e+03
    3.16683e-03     8.37855e+03
    3.18512e-03     8.41819e+03
    3.20352e-03     8.45797e+03
    3.22202e-03     8.49789e+03
    3.24063e-03     8.53794e+03
    3.25935e-03     8.57813e+03
    3.27817e-03     8.61846e+03
    3.29710e-03     8.65892e+03
    3.31615e-03     8.69951e+03
    3.33530e-03     8.74024e+03
    3.35456e-03     8.78111e+03
    3.37394e-03     8.82211e+03
    3.39342e-03     8.86325e+03
    3.41302e-03     8.90452e+03
    3.43273e-03     8.94592e+03
    3.45256e-03     8.98746e+03
    3.47250e-03     9.02913e+03
    3.49255e-03     9.07094e+03
    3.51272e-03     9.11288e+03
    3.53301e-03     9.15495e+03
    3.55342e-03     9.19716e+03
    3.57394e-03     9.23949e+03
